GiD Post Results File 1.0
Result "PRESSURE" "pyKratos" 0.01 scalar OnNodes
values
1 244.8952914346389
2 244.11991680620767
3 233.29545138427855
4 219.77150517887264
5 205.5273677800591
6 191.26554991675218
7 177.23406039413257
8 163.54867149254775
9 150.29129196222675
10 137.53299247939876
11 125.3365861177667
12 113.75513461584289
13 102.8303534875581
14 92.59158110894629
15 83.0552875704374
16 74.2250255738977
17 66.09175104484805
18 58.63446378718937
19 51.8211305620388
20 45.60986015317106
21 39.9503072504921
22 34.78529313310163
23 30.05264794550258
24 25.68729176002274
25 21.623527845900192
26 17.7973182275877
27 14.14824861583905
28 10.62449582210289
29 7.217574542498184
30 4.14947762234487
31 2.702935684889982
32 245.15997422486438
33 244.37638201830433
34 233.4151603515439
35 219.81798289628424
36 205.54044882550934
37 191.26538033863412
38 177.2282784649438
39 163.5396185419575
40 150.27958559492987
41 137.5188512040428
42 125.32021755334381
43 113.73681310505418
44 102.81041555744187
45 92.57040655894811
46 83.03328169405957
47 74.20260434182872
48 66.06932859609388
49 58.6124415710404
50 51.79988770356361
51 45.58974462859
52 39.93162711620172
53 34.76830621937398
54 30.03754767130435
55 25.67419126854712
56 21.61247827004911
57 17.78852618039661
58 14.142942079070501
59 10.626998935563124
60 7.237863587182404
61 4.200164798504878
62 2.7210756705680152
63 246.23015365970332
64 245.1000700456357
65 233.70626199824224
66 219.9034339884953
67 205.5482299786701
68 191.24680833873447
69 177.19895808084644
70 163.50316204497653
71 150.2367079703446
72 137.47000232163907
73 125.26609548881257
74 113.67835170073947
75 102.74869740584238
76 92.50659202515472
77 82.96855793510396
78 74.13814649977526
79 66.00626784944882
80 58.55183751424846
81 51.742703843086964
82 45.53682604628096
83 39.883678904201645
84 34.72587058420669
85 30.000979382398043
86 25.643648506533843
87 21.588025394553068
88 17.77069761693682
89 14.134590169207172
90 10.637084908502977
91 7.284092811514109
92 4.297974059158976
93 2.8281739915173745
94 248.0356555982331
95 246.2505264887229
96 234.14394793449574
97 220.01346319343284
98 205.54592982926894
99 191.20965755850779
100 177.14766390612687
101 163.44152434372296
102 150.16521653789692
103 137.38924624960515
104 125.17721661644649
105 113.58289576480256
106 102.64843904766279
107 92.4034145827371
108 82.86437239519681
109 74.03483100258026
110 65.90561798842145
111 58.4555232982886
112 51.652231497780164
113 45.45350333294763
114 39.80858221604046
115 34.65981173193171
116 29.9444740008928
117 25.5969140728457
118 21.55114294754933
119 17.74440016839951
120 14.12282512529056
121 10.652602382558575
122 7.353255223300382
123 4.446667183863748
124 3.027579553661848
125 250.48259957056223
126 247.75269111286997
127 234.67635466784225
128 220.12707862089488
129 205.52861767309213
130 191.15511695089575
131 177.07753957399464
132 163.35859710754042
133 150.06949874348228
134 137.28141142932833
135 125.05879666035096
136 113.45596918548092
137 102.51537621125955
138 92.2667177794491
139 82.72657103105925
140 73.89840351193003
141 65.77292735835051
142 58.32876103583038
143 51.53336786985819
144 45.34424238143917
145 39.71031973865863
146 34.573594486613146
147 29.87096382850518
148 25.536390388682303
149 21.50369102549452
150 17.710787495511582
151 14.107437465325631
152 10.670729626397884
153 7.440313489913272
154 4.645017553722475
155 3.3181380485290566
156 253.4028496941658
157 249.48487793490213
158 235.22745392953527
159 220.21901807461674
160 205.49296560455886
161 191.0865100401182
162 176.99374043927594
163 163.26035331495603
164 149.95624660479749
165 137.1538952602788
166 124.91886408437932
167 113.30610596977824
168 102.35839592114303
169 92.10557808478389
170 82.56425440892164
171 73.7378275043045
172 65.61686976069738
173 58.1797945740926
174 51.39380215805463
175 45.21607167907957
176 39.59517485007126
177 34.47269754717588
178 29.78509057625536
179 25.4658734010888
180 21.448604215747295
181 17.671787312624154
182 14.088673222648127
183 10.68819822529379
184 7.537238148955402
185 4.885896022905965
186 3.6936140383072766
187 256.4666457886742
188 251.26154306118949
189 235.70250667592217
190 220.265634792699
191 205.43959912369274
192 191.0101134610979
193 176.90394128329382
194 163.15543256490002
195 149.83517402532414
196 137.01749241957796
197 124.76917219206636
198 113.14582256934457
199 102.19054793367077
200 91.93333538427254
201 82.39080787796057
202 73.56629555712294
203 65.45021941981246
204 58.02077218905673
205 51.24487181490543
206 45.07936000156985
207 39.47242083675243
208 34.365206683181796
209 29.69369782566964
210 25.390944239414043
211 21.390191834212956
212 17.63034813712525
213 14.067585021564778
214 10.701872978793201
215 7.632410049735847
216 5.1534469899567785
217 4.1375193683902385
218 259.0181685643326
219 252.81453290934468
220 236.00283632973333
221 220.25441908389487
222 205.37568398460246
223 190.93583142502865
224 176.81892770330367
225 163.05597147935086
226 149.72006492754448
227 136.88760610109415
228 124.6265314503947
229 112.993038071307
230 102.03052282283335
231 91.76910001229706
232 82.2254093002178
233 73.40271059179155
234 65.29128015980713
235 57.86910025259551
236 51.102819868588746
237 44.94895956293148
238 39.35533539128261
239 34.26268978712167
240 29.606560112382954
241 25.31955141360483
242 21.334580671706956
243 17.59075894842028
244 14.046368576383113
245 10.709797788649215
246 7.711055107019449
247 5.417430951906923
248 4.611504585842811
249 259.75339615582067
250 253.78436924197624
251 236.06195995107697
252 220.1963584850494
253 205.31664008157597
254 190.87751280818316
255 176.75334017909526
256 162.97879994749155
257 149.63028226452232
258 136.78598059516028
259 124.51470988916297
260 112.8730983013216
261 101.90475843592762
262 91.63990074479388
263 82.09517841842182
264 73.27379786661619
265 65.16592352859935
266 57.74937402991771
267 50.99058865973455
268 44.84583728021825
269 39.262648849565416
270 34.18144691941544
271 29.537425685865454
272 25.26284425864708
273 21.290345306537873
274 17.55909246298936
275 14.02859477534133
276 10.712405199961973
277 7.7588493990807255
278 5.622685837690705
279 5.031345800035287
280 259.07144261818434
281 253.75409615117906
282 235.92516752508155
283 220.13604377662995
284 205.28511166523253
285 190.8528331058007
286 176.72675572333176
287 162.94718737352935
288 149.59292122600078
289 136.7431503566264
290 124.4671112781424
291 112.82162581028985
292 101.85040502233797
293 91.58370802327974
294 82.03820172616948
295 73.21707696196293
296 65.11045653823572
297 57.696094098389196
298 50.94034311976632
299 44.79936920894792
300 39.22058097537902
301 34.14426828737081
302 29.50548300661319
303 25.23634464599421
304 21.26939168492067
305 17.543816673575442
306 14.019582439007173
307 10.711965975991248
308 7.774404910472786
309 5.669323418076673
310 5.216281312453101
end values
Result "DISPLACEMENT" "pyKratos" 0.01 vector OnNodes
values
1 0 0
2 0 0
3 0 0
4 0 0
5 0 0
6 0 0
7 0 0
8 0 0
9 0 0
10 0 0
11 0 0
12 0 0
13 0 0
14 0 0
15 0 0
16 0 0
17 0 0
18 0 0
19 0 0
20 0 0
21 0 0
22 0 0
23 0 0
24 0 0
25 0 0
26 0 0
27 0 0
28 0 0
29 0 0
30 0 0
31 0 0
32 0 0
33 0 0
34 0 0
35 0 0
36 0 0
37 0 0
38 0 0
39 0 0
40 0 0
41 0 0
42 0 0
43 0 0
44 0 0
45 0 0
46 0 0
47 0 0
48 0 0
49 0 0
50 0 0
51 0 0
52 0 0
53 0 0
54 0 0
55 0 0
56 0 0
57 0 0
58 0 0
59 0 0
60 0 0
61 0 0
62 0 0
63 0 0
64 0 0
65 0 0
66 0 0
67 0 0
68 0 0
69 0 0
70 0 0
71 0 0
72 0 0
73 0 0
74 0 0
75 0 0
76 0 0
77 0 0
78 0 0
79 0 0
80 0 0
81 0 0
82 0 0
83 0 0
84 0 0
85 0 0
86 0 0
87 0 0
88 0 0
89 0 0
90 0 0
91 0 0
92 0 0
93 0 0
94 0 0
95 0 0
96 0 0
97 0 0
98 0 0
99 0 0
100 0 0
101 0 0
102 0 0
103 0 0
104 0 0
105 0 0
106 0 0
107 0 0
108 0 0
109 0 0
110 0 0
111 0 0
112 0 0
113 0 0
114 0 0
115 0 0
116 0 0
117 0 0
118 0 0
119 0 0
120 0 0
121 0 0
122 0 0
123 0 0
124 0 0
125 0 0
126 0 0
127 0 0
128 0 0
129 0 0
130 0 0
131 0 0
132 0 0
133 0 0
134 0 0
135 0 0
136 0 0
137 0 0
138 0 0
139 0 0
140 0 0
141 0 0
142 0 0
143 0 0
144 0 0
145 0 0
146 0 0
147 0 0
148 0 0
149 0 0
150 0 0
151 0 0
152 0 0
153 0 0
154 0 0
155 0 0
156 0 0
157 0 0
158 0 0
159 0 0
160 0 0
161 0 0
162 0 0
163 0 0
164 0 0
165 0 0
166 0 0
167 0 0
168 0 0
169 0 0
170 0 0
171 0 0
172 0 0
173 0 0
174 0 0
175 0 0
176 0 0
177 0 0
178 0 0
179 0 0
180 0 0
181 0 0
182 0 0
183 0 0
184 0 0
185 0 0
186 0 0
187 0 0
188 0 0
189 0 0
190 0 0
191 0 0
192 0 0
193 0 0
194 0 0
195 0 0
196 0 0
197 0 0
198 0 0
199 0 0
200 0 0
201 0 0
202 0 0
203 0 0
204 0 0
205 0 0
206 0 0
207 0 0
208 0 0
209 0 0
210 0 0
211 0 0
212 0 0
213 0 0
214 0 0
215 0 0
216 0 0
217 0 0
218 0 0
219 0 0
220 0 0
221 0 0
222 0 0
223 0 0
224 0 0
225 0 0
226 0 0
227 0 0
228 0 0
229 0 0
230 0 0
231 0 0
232 0 0
233 0 0
234 0 0
235 0 0
236 0 0
237 0 0
238 0 0
239 0 0
240 0 0
241 0 0
242 0 0
243 0 0
244 0 0
245 0 0
246 0 0
247 0 0
248 0 0
249 0 0
250 0 0
251 0 0
252 0 0
253 0 0
254 0 0
255 0 0
256 0 0
257 0 0
258 0 0
259 0 0
260 0 0
261 0 0
262 0 0
263 0 0
264 0 0
265 0 0
266 0 0
267 0 0
268 0 0
269 0 0
270 0 0
271 0 0
272 0 0
273 0 0
274 0 0
275 0 0
276 0 0
277 0 0
278 0 0
279 0 0
280 0.0 0.0
281 5.3368577085066705e-06 2.0061783201512748e-05
282 9.340208513289422e-06 6.903063700348327e-05
283 1.2136065909405482e-05 0.00013850637713815674
284 1.3883360463963768e-05 0.0002212154388054718
285 1.4729861550698855e-05 0.0003108931175178736
286 1.4813043709517219e-05 0.00040221537720968356
287 1.4260453989419272e-05 0.0004907320346029865
288 1.3189940941899914e-05 0.0005728009655795034
289 1.1709913749325562e-05 0.0006455238282310485
290 9.91966053218459e-06 0.0007066837973636732
291 7.909722233480695e-06 0.0007546857284558294
292 5.762312682489554e-06 0.0007884990941389235
293 3.5517749943051887e-06 0.0008076039678970361
294 1.3450646269087472e-06 0.0008119402633216741
295 -7.977505216127425e-07 0.0008018603708278594
296 -2.8229825275493192e-06 0.0007780852670724651
297 -4.682817719079412e-06 0.0007416641065908418
298 -6.334821784722792e-06 0.0006939372415918873
299 -7.741464099900841e-06 0.0006365025559172525
300 -8.86966894045709e-06 0.0005711849440971584
301 -9.69040030633116e-06 0.0005000087169497884
302 -1.017828605121909e-05 0.0004251726729201074
303 -1.031128585318549e-05 0.00034902753965418757
304 -1.0070406170716359e-05 0.0002740554634903229
305 -9.43946354336592e-06 0.00020285120757919847
306 -8.404894603701071e-06 0.00013810471272619474
307 -6.955604673784868e-06 8.258468652011668e-05
308 -5.082827825148489e-06 3.9122943007020204e-05
309 -2.7795643954440656e-06 1.0600011575144679e-05
310 0.0 0.0
end values
Result "VELOCITY" "pyKratos" 0.01 vector OnNodes
values
1 1.0 0
2 1.0501317238142505 0
3 1.1130401745243619 0
4 1.1421928450739858 0
5 1.1443260962923196 0
6 1.130505638756713 0
7 1.1069306230105882 0
8 1.0762351552458778 0
9 1.0395538465156715 0
10 0.9976180974043334 0
11 0.9511593103830295 0
12 0.9010061562997198 0
13 0.8480781865992103 0
14 0.7933533958461134 0
15 0.7378335125802558 0
16 0.6825125035683577 0
17 0.6283488017055044 0
18 0.5762408175296245 0
19 0.5270052799977625 0
20 0.4813580607234084 0
21 0.4398972632914654 0
22 0.4030886962598035 0
23 0.3712550570474239 0
24 0.34457412000066834 0
25 0.3231023579573017 0
26 0.3068645417613145 0
27 0.2960735255721296 0
28 0.291456725655588 0
29 0.2941899758077703 0
30 0.3041647689303742 0
31 0.3167961287487685 0
32 1.0 0
33 1.0405908578723109 -0.028026597198334002
34 1.103553474387903 -0.015890036839394384
35 1.131340700594508 -0.004527846354164922
36 1.1324783247277261 0.00214151405086227
37 1.1183139430483755 0.005928714451101769
38 1.0948145972584267 0.008449376808286502
39 1.0644092010993864 0.01046187741341953
40 1.028128267206772 0.012214372241487581
41 0.9866596795038047 0.01374667957180975
42 0.9407159828609827 0.015036151028411382
43 0.891114487712685 0.016051856295902667
44 0.8387647780134964 0.016770520330389616
45 0.7846347105527898 0.017179571849297304
46 0.7297156199333547 0.017276689686134716
47 0.6749911030473519 0.017068701159579397
48 0.6214095672232394 0.016570516469140345
49 0.5698600308258049 0.015804196529906278
50 0.5211507185192011 0.014798136647264926
51 0.47599011808696196 0.013586337660547843
52 0.43497030229292943 0.012207713055586211
53 0.3985526650755206 0.010705258408030716
54 0.36705739305596047 0.00912449969464646
55 0.3406616443320943 0.007509549134688598
56 0.31942118385727436 0.005893050346958972
57 0.303350843057013 0.004275972477547185
58 0.2926213984154351 0.0026114434720110324
59 0.2878691319012837 0.0008916596763945961
60 0.29023099473310976 -0.0003752241501731035
61 0.3000870845560357 0.0010860682563089696
62 0.31553974998899736 0.01113340698848163
63 1.0 0
64 1.024510004322644 -0.05389105616089607
65 1.0762028112807798 -0.030530221334221674
66 1.097439076211188 -0.008298407025904453
67 1.0957653139705206 0.0045795215462476335
68 1.0810110822431884 0.011884606865266267
69 1.0579772327255283 0.016795891400889218
70 1.0285197353383642 0.020757722153149416
71 0.993446144569186 0.02422589839646605
72 0.9533643024843919 0.02726386871864861
73 0.9089506616772277 0.02982146243579109
74 0.8609949950339959 0.031835954564371605
75 0.8103784218907135 0.03326098112984255
76 0.7580382523763384 0.03407167840242664
77 0.7049340883962937 0.03426353728338505
78 0.652017759034681 0.03385017138438329
79 0.600206895498933 0.03286120281606486
80 0.5503616100446324 0.03134041799741283
81 0.5032638555977833 0.02934415025526249
82 0.4595991668755321 0.026939832012267573
83 0.4199406127897658 0.024204617800540007
84 0.38473509735690775 0.02122375711544411
85 0.35429311078729225 0.018087663527296627
86 0.32878585454803055 0.01488470747336379
87 0.3082609244776899 0.011683101702249843
88 0.2927036494887543 0.008493915408809727
89 0.28219723466006197 0.005236555798397546
90 0.27723518852379697 0.0018814089855503369
91 0.27901964485481123 -0.0006676940488006267
92 0.2889016061578291 0.0019245189664851786
93 0.30690078845240926 0.0215490492518714
94 1.0 0
95 0.9987533406705064 -0.07562984671120149
96 1.0292152966923638 -0.0417414831505768
97 1.0390777288359256 -0.010376834309409777
98 1.033203902569104 0.007580690056370187
99 1.017855979151303 0.017848873113720742
100 0.9957834667508862 0.024909729613767695
101 0.967978306056029 0.03070885489848152
102 0.9349479235644083 0.03582583276468654
103 0.8971992611130304 0.04031886110216121
104 0.8553596426392431 0.04410301633757996
105 0.810175489677448 0.04708316799175005
106 0.7624803309067687 0.049190609190361556
107 0.713159732299701 0.05038882421240842
108 0.6631194627472574 0.050671374764255095
109 0.6132574771029056 0.05005855074135468
110 0.5644392248562298 0.048594261482264756
111 0.5174757981515867 0.04634332446521938
112 0.47310456872331486 0.04338907923940383
113 0.431972065057316 0.03983124498979862
114 0.3946189450475046 0.03578388791945075
115 0.3614671497805446 0.03137307988345128
116 0.33280996939553376 0.026732904738729024
117 0.30880747638466843 0.021996065289016542
118 0.28949404120506017 0.01727064737441797
119 0.2748150426204603 0.012591524552028943
120 0.26473830675751664 0.007865403550681549
121 0.2595570554437785 0.0030214399487444865
122 0.2605188118691398 -0.0008223516095580141
123 0.2702297627271571 0.002393958706762661
124 0.29116308916412587 0.030718250340330266
125 1.0 0
126 0.9587339266697649 -0.09108062350747542
127 0.9588114529495151 -0.04769376412026444
128 0.9538793677775947 -0.010014132791577923
129 0.9432523865699416 0.011299606666550943
130 0.9276754240878233 0.023755908873097198
131 0.9071951665783331 0.03264712881540355
132 0.8818032113603161 0.04013492174799538
133 0.8516923041777528 0.04680734797577202
134 0.8172659794417723 0.052681647265742315
135 0.7790925715989881 0.05763067268398514
136 0.7378585569868309 0.06152711965169849
137 0.6943292995355073 0.06428135460399698
138 0.649316019667807 0.0658462100832436
139 0.6036472690602903 0.06621368849070192
140 0.5581438365781939 0.06541056875809659
141 0.5135964856083812 0.06349439436993803
142 0.4707461643926966 0.060549962807875
143 0.43026644088662636 0.05668621970281318
144 0.39274797331848804 0.052033460955490884
145 0.3586848939775364 0.04674069180568663
146 0.3284631168205463 0.040972688940175805
147 0.30235087018591594 0.03490533964337034
148 0.2804923574688768 0.028715313733181924
149 0.26290679005568124 0.02255505485541101
150 0.2494996750978529 0.016499220122083658
151 0.2401178122550848 0.010471781731503899
152 0.2348005190436599 0.004354435470560941
153 0.23469347507403562 -0.0007483127463032702
154 0.24376002194627805 0.0024015265008081664
155 0.2681629184406318 0.037941094104921094
156 1.0 0
157 0.8971240389765948 -0.09784513266617267
158 0.8592166717566201 -0.04700838536706442
159 0.8385727347134271 -0.006829040146442367
160 0.8238877076315525 0.015719734250531303
161 0.8088870108855523 0.02948101661605307
162 0.7907664125646652 0.03985133579213296
163 0.7686062588884681 0.04885702921923796
164 0.7423416978390946 0.05696855921700816
165 0.7122860726745728 0.06412776250611074
166 0.6789394400409776 0.07015993874449045
167 0.6429094925580046 0.07490717546509629
168 0.60487056332029 0.07826102146086633
169 0.5655349170663442 0.08016497254352822
170 0.5256286978286226 0.08060992140910272
171 0.4858705652166577 0.07962885798144903
172 0.44695253657080514 0.07729207632774404
173 0.4095228596702185 0.07370295138021987
174 0.3741707803896688 0.06899417702057065
175 0.3414130770626329 0.0633243662262899
176 0.31168225836023566 0.056874864899697286
177 0.28531635948944967 0.049846352297874486
178 0.26255024706333785 0.0424539159988086
179 0.24350800362849512 0.0349169951931243
180 0.22819490241461793 0.027435814538836922
181 0.2164869552647417 0.020140079457033444
182 0.20813100942910978 0.013007817548984058
183 0.20289278619595486 0.005899361675881343
184 0.20156456358975489 -0.0003227616842269576
185 0.2092174123812503 0.0019114425212757309
186 0.23738009559478482 0.04231380516952875
187 1.0 0
188 0.8017097037034315 -0.0933624517445324
189 0.7226126158877033 -0.03904120470829753
190 0.6892603944476904 -0.0009744024108968574
191 0.6727259127684514 0.020611923839059187
192 0.6595199334256968 0.03484173754719677
193 0.6446291008948867 0.04635971774981584
194 0.6265711493154639 0.056703782148872506
195 0.6051408776623639 0.0661176544537212
196 0.5805814779424441 0.07444326596202872
197 0.553312156795682 0.0814571567196764
198 0.5238392021914768 0.08697391880228483
199 0.49271998523333355 0.0908689863328192
200 0.46054062618158564 0.09307806017588383
201 0.42789734309190797 0.09359140868014071
202 0.39537953059590863 0.09244784909630438
203 0.3635543683639734 0.0897293136369629
204 0.3329529722118301 0.085556012486523
205 0.3040580524505337 0.0800820918944535
206 0.2772930042421678 0.07349169869277264
207 0.2530123452327962 0.0659953232876603
208 0.2314933818418526 0.05782607153562794
209 0.21292874626940148 0.049234820471034085
210 0.19741850345874581 0.04048140542842241
211 0.1849579215773868 0.03181510192503456
212 0.1754126393291622 0.02343199389499817
213 0.16847751233838465 0.015400371525704518
214 0.16369956884021988 0.0076275374916629085
215 0.16126077100913258 0.0005929490195520359
216 0.16646029562991452 0.001001164433389232
217 0.1978535094035494 0.04264878394739055
218 1.0 0
219 0.6513762975239654 -0.07525186063767109
220 0.539475403970113 -0.024411107109486352
221 0.501937096945981 0.006716902082580134
222 0.48717473105389286 0.025535528367377935
223 0.47721911691085717 0.0396184735313696
224 0.46646422796312376 0.052017848322321925
225 0.4534225759363738 0.06352057499772457
226 0.43788867981223967 0.07408083343733551
227 0.420048541236725 0.08343284656072569
228 0.40022052930109 0.09130817695540827
229 0.3787818690781534 0.09749837475224865
230 0.35614336332522156 0.10186583206316868
231 0.3327346984803047 0.10434010401665716
232 0.3089917943229337 0.10491130742741461
233 0.28534494906084734 0.10362358710388264
234 0.26220787892991565 0.1005691826311903
235 0.2399677937847082 0.09588308212499896
